                  #Energy              Total trace      Spin Up (spin axis)      Spin Dn (spin axis)         <Sz> (spin axis)
      -13.605693008999998        0.032605332311105        0.016302666154804        0.016302666156301        0.000000000000749
      -13.578481622981998        0.032744220050674        0.016372110024769        0.016372110025905        0.000000000000568
      -13.551270236963997        0.032886739660828        0.016443369831701        0.016443369829126       -0.000000000001288
      -13.524058850945998        0.033032921166116        0.016516460584045        0.016516460582071       -0.000000000000987
      -13.496847464927997        0.033182796315603        0.016591398158617        0.016591398156986       -0.000000000000815
      -13.469636078909998        0.033336398625275        0.016668199313101        0.016668199312174       -0.000000000000463
      -13.442424692891997        0.033493763413920        0.016746881705147        0.016746881708773        0.000000000001813
      -13.415213306873998        0.033654927789376        0.016827463894347        0.016827463895029        0.000000000000341
      -13.388001920855997        0.033819930725454        0.016909965364074        0.016909965361380       -0.000000000001347
      -13.360790534837998        0.033988813059314        0.016994406528508        0.016994406530806        0.000000000001149
      -13.333579148819997        0.034161617537087        0.017080808768212        0.017080808768874        0.000000000000331
      -13.306367762801997        0.034338388844247        0.017169194422919        0.017169194421327       -0.000000000000796
      -13.279156376783998        0.034519173642258        0.017259586821393        0.017259586820865       -0.000000000000264
      -13.251944990765997        0.034704020612603        0.017352010306521        0.017352010306082       -0.000000000000219
      -13.224733604747998        0.034892980500203        0.017446490249747        0.017446490250456        0.000000000000354
      -13.197522218729997        0.035086106151687        0.017543053076199        0.017543053075488       -0.000000000000356
      -13.170310832711998        0.035283452549820        0.017641726275591        0.017641726274229       -0.000000000000681
      -13.143099446693997        0.035485076898536        0.017742538450041        0.017742538448496       -0.000000000000772
      -13.115888060675998        0.035691038640739        0.017845519319237        0.017845519321502        0.000000000001133
      -13.088676674657997        0.035901399523588        0.017950699761853        0.017950699761736       -0.000000000000059
      -13.061465288639997        0.036116223672561        0.018058111836285        0.018058111836276       -0.000000000000004
      -13.034253902621998        0.036335577622175        0.018167788810004        0.018167788812170        0.000000000001083
      -13.007042516603999        0.036559530410692        0.018279765205598        0.018279765205094       -0.000000000000252
      -12.979831130585998        0.036788153616550        0.018394076808017        0.018394076808533        0.000000000000258
      -12.952619744567999        0.037021521456423        0.018510760727584        0.018510760728839        0.000000000000627
      -12.925408358549999        0.037259710848840        0.018629855425359        0.018629855423482       -0.000000000000939
      -12.898196972531998        0.037502801483568        0.018751400742242        0.018751400741326       -0.000000000000458
      -12.870985586513999        0.037750875908372        0.018875437953253        0.018875437955119        0.000000000000933
      -12.843774200495998        0.038004019636105        0.019002009818929        0.019002009817176       -0.000000000000877
      -12.816562814477999        0.038262321196024        0.019131160598989        0.019131160597035       -0.000000000000977
      -12.789351428459998        0.038525872252594        0.019262936126506        0.019262936126088       -0.000000000000209
      -12.762140042441999        0.038794767709530        0.019397383854781        0.019397383854749       -0.000000000000016
      -12.734928656423998        0.039069105787283        0.019534552891099        0.019534552896184        0.000000000002543
      -12.707717270405999        0.039348988159065        0.019674494079216        0.019674494079849        0.000000000000316
      -12.680505884387998        0.039634520055032        0.019817260028341        0.019817260026691       -0.000000000000825
      -12.653294498369998        0.039925810379115        0.019962905190461        0.019962905188655       -0.000000000000903
      -12.626083112351999        0.040222971824480        0.020111485912660        0.020111485911820       -0.000000000000420
      -12.598871726333998        0.040526121033824        0.020263060517033        0.020263060516792       -0.000000000000121
      -12.571660340315999        0.040835378704250        0.020417689351575        0.020417689352675        0.000000000000550
      -12.544448954297998        0.041150869760773        0.020575434881165        0.020575434879607       -0.000000000000779
      -12.517237568279999        0.041472723490014        0.020736361744998        0.020736361745016        0.000000000000009
      -12.490026182261998        0.041801073696694        0.020900536847491        0.020900536849204        0.000000000000857
      -12.462814796243999        0.042136058888530        0.021068029444416        0.021068029444114       -0.000000000000151
      -12.435603410225998        0.042477822438532        0.021238911217134        0.021238911221399        0.000000000002132
      -12.408392024207998        0.042826512771272        0.021413256384736        0.021413256386536        0.000000000000900
      -12.381180638189999        0.043182283555307        0.021591141777427        0.021591141777880        0.000000000000226
      -12.353969252171998        0.043545293904758        0.021772646952216        0.021772646952542        0.000000000000163
      -12.326757866153999        0.043915708600435        0.021957854299932        0.021957854300503        0.000000000000286
      -12.299546480135998        0.044293698311006        0.022146849156203        0.022146849154803       -0.000000000000700
      -12.272335094117999        0.044679439815356        0.022339719907743        0.022339719907613       -0.000000000000065
      -12.245123708099998        0.045073116282516        0.022536558141531        0.022536558140985       -0.000000000000273
      -12.217912322081999        0.045474917483369        0.022737458742600        0.022737458740770       -0.000000000000915
      -12.190700936063998        0.045885040111084        0.022942520054568        0.022942520056516        0.000000000000974
      -12.163489550045998        0.046303688048794        0.023151844024301        0.023151844024493        0.000000000000096
      -12.136278164027997        0.046731072672413        0.023365536336483        0.023365536335930       -0.000000000000277
      -12.109066778009998        0.047167413165854        0.023583706582756        0.023583706583098        0.000000000000171
      -12.081855391991999        0.047612936885153        0.023806468443477        0.023806468441676       -0.000000000000900
      -12.054644005973998        0.048067879668299        0.024033939832908        0.024033939835391        0.000000000001242
      -12.027432619955999        0.048532486259757        0.024266243130252        0.024266243129505       -0.000000000000373
      -12.000221233937998        0.049007010667093        0.024503505333375        0.024503505333718        0.000000000000172
      -11.973009847919998        0.049491716585328        0.024745858293622        0.024745858291705       -0.000000000000959
      -11.945798461901997        0.049986877856836        0.024993438930227        0.024993438926609       -0.000000000001809
      -11.918587075883998        0.050492778913734        0.025246389457447        0.025246389456287       -0.000000000000580
      -11.891375689865997        0.051009715286737        0.025504857646028        0.025504857640710       -0.000000000002659
      -11.864164303847998        0.051537994103830        0.025768997051547        0.025768997052282        0.000000000000368
      -11.836952917829997        0.052077934646510        0.026038967324650        0.026038967321860       -0.000000000001395
      -11.809741531811998        0.052629868938198        0.026314934469347        0.026314934468852       -0.000000000000247
      -11.782530145793999        0.053194142360000        0.026597071179580        0.026597071180421        0.000000000000421
      -11.755318759775998        0.053771114282063        0.026885557141591        0.026885557140472       -0.000000000000559
      -11.728107373757998        0.054361158784456        0.027180579392424        0.027180579392032       -0.000000000000196
      -11.700895987739997        0.054964665356241        0.027482332677248        0.027482332678992        0.000000000000872
      -11.673684601721998        0.055582039674145        0.027791019836111        0.027791019838034        0.000000000000962
      -11.646473215703997        0.056213704470941        0.028106852235335        0.028106852235606        0.000000000000135
      -11.619261829685998        0.056860100345745        0.028430050173111        0.028430050172634       -0.000000000000238
      -11.592050443667997        0.057521686727715        0.028760843364860        0.028760843362855       -0.000000000001002
      -11.564839057649998        0.058198942871791        0.029099471434781        0.029099471437010        0.000000000001114
      -11.537627671631999        0.058892368881407        0.029446184441926        0.029446184439481       -0.000000000001223
      -11.510416285613998        0.059602486848541        0.029801243426014        0.029801243422527       -0.000000000001743
      -11.483204899595998        0.060329842026076        0.030164921012534        0.030164921013542        0.000000000000504
      -11.455993513577997        0.061075004123315        0.030537502060671        0.030537502062645        0.000000000000987
      -11.428782127559998        0.061838568632977        0.030919284315129        0.030919284317848        0.000000000001360
      -11.401570741541997        0.062621158282730        0.031310579140995        0.031310579141734        0.000000000000369
      -11.374359355523998        0.063423424597039        0.031711712298100        0.031711712298939        0.000000000000420
      -11.347147969505997        0.064246049518152        0.032123024759031        0.032123024759121        0.000000000000045
      -11.319936583487999        0.065089747176973        0.032544873588586        0.032544873588386       -0.000000000000100
      -11.292725197469998        0.065955265805575        0.032977632901159        0.032977632904416        0.000000000001628
      -11.265513811451999        0.066843389709751        0.033421694852378        0.033421694857373        0.000000000002498
      -11.238302425433998        0.067754941472358        0.033877470737176        0.033877470735182       -0.000000000000997
      -11.211091039415999        0.068690784269088        0.034345392134486        0.034345392134602        0.000000000000058
      -11.183879653398000        0.069651824353256        0.034825912177863        0.034825912175393       -0.000000000001235
      -11.156668267379999        0.070639013727044        0.035319506864088        0.035319506862956       -0.000000000000566
      -11.129456881362000        0.071653353060224        0.035826676530517        0.035826676529707       -0.000000000000405
      -11.102245495343999        0.072695894746535        0.036347947373168        0.036347947373367        0.000000000000099
      -11.075034109325999        0.073767746273280        0.036883873135777        0.036883873137503        0.000000000000863
      -11.047822723307998        0.074870073796406        0.037435036898310        0.037435036898096       -0.000000000000107
      -11.020611337289999        0.076004106056975        0.038002053029327        0.038002053027647       -0.000000000000840
      -10.993399951271998        0.077171138541966        0.038585569270345        0.038585569271621        0.000000000000638
      -10.966188565253999        0.078372538073257        0.039186269036062        0.039186269037195        0.000000000000567
      -10.938977179235998        0.079609747654536        0.039804873827749        0.039804873826788       -0.000000000000480
      -10.911765793217999        0.080884291839820        0.040442145920693        0.040442145919127       -0.000000000000783
      -10.884554407200000        0.082197782491871        0.041098891246781        0.041098891245090       -0.000000000000845
      -10.857343021181999        0.083551925048788        0.041775962524498        0.041775962524291       -0.000000000000104
      -10.830131635163999        0.084948525320396        0.042474262659678        0.042474262660718        0.000000000000520
      -10.802920249145998        0.086389496913214        0.043194748456515        0.043194748456698        0.000000000000091
      -10.775708863127999        0.087876869306434        0.043938434655092        0.043938434651341       -0.000000000001875
      -10.748497477109998        0.089412796660811        0.044706398331239        0.044706398329572       -0.000000000000833
      -10.721286091091999        0.090999567428357        0.045499783714872        0.045499783713486       -0.000000000000693
      -10.694074705073998        0.092639614859867        0.046319807432061        0.046319807427806       -0.000000000002128
      -10.666863319055999        0.094335528563096        0.047167764281040        0.047167764282056        0.000000000000508
      -10.639651933037998        0.096090067084637        0.048045033541512        0.048045033543125        0.000000000000807
      -10.612440547019999        0.097906171827955        0.048953085911931        0.048953085916023        0.000000000002046
      -10.585229161001999        0.099786982267396        0.049893491134034        0.049893491133361       -0.000000000000336
      -10.558017774983998        0.101735852758426        0.050867926380358        0.050867926378069       -0.000000000001145
      -10.530806388965999        0.103756371072641        0.051878185537397        0.051878185535243       -0.000000000001077
      -10.503595002947998        0.105852378862000        0.052926189429581        0.052926189432419        0.000000000001419
      -10.476383616929999        0.108027994321185        0.054013997160665        0.054013997160520       -0.000000000000072
      -10.449172230911998        0.110287637279584        0.055143818639938        0.055143818639645       -0.000000000000147
      -10.421960844893999        0.112636057118247        0.056318028559089        0.056318028559158        0.000000000000034
      -10.394749458875998        0.115078363797752        0.057539181897110        0.057539181900641        0.000000000001766
      -10.367538072857998        0.117620062430313        0.058810031216447        0.058810031213866       -0.000000000001291
      -10.340326686839999        0.120267091943826        0.060133545971095        0.060133545972731        0.000000000000818
      -10.313115300821998        0.123025868323852        0.061512934162858        0.061512934160994       -0.000000000000932
      -10.285903914803999        0.125903333120882        0.062951666561324        0.062951666559558       -0.000000000000883
      -10.258692528785998        0.128907008006208        0.064453504001668        0.064453504004540        0.000000000001436
      -10.231481142767999        0.132045056222730        0.066022528109941        0.066022528112790        0.000000000001425
      -10.204269756749998        0.135326352011429        0.067663176005094        0.067663176006335        0.000000000000621
      -10.177058370731999        0.138760559246010        0.069380279623606        0.069380279622405       -0.000000000000601
      -10.149846984713998        0.142358220719133        0.071179110358569        0.071179110360564        0.000000000000997
      -10.122635598695998        0.146130859779759        0.073065429892008        0.073065429887751       -0.000000000002128
      -10.095424212677997        0.150091096447109        0.075045548224152        0.075045548222958       -0.000000000000597
      -10.068212826659998        0.154252780401819        0.077126390202192        0.077126390199626       -0.000000000001283
      -10.041001440641999        0.158631143768165        0.079315571883262        0.079315571884903        0.000000000000821
      -10.013790054623998        0.163242977341792        0.081621488671937        0.081621488669855       -0.000000000001041
       -9.986578668605999        0.168106834410846        0.084053417205993        0.084053417204853       -0.000000000000570
       -9.959367282587998        0.173243267569467        0.086621633784235        0.086621633785232        0.000000000000498
       -9.932155896569999        0.178675104700074        0.089337552352368        0.089337552347707       -0.000000000002330
       -9.904944510551998        0.184427772183405        0.092213886091871        0.092213886091534       -0.000000000000168
       -9.877733124533998        0.190529674882945        0.095264837441848        0.095264837441096       -0.000000000000376
       -9.850521738515997        0.197012645003607        0.098506322501646        0.098506322501960        0.000000000000157
       -9.823310352497998        0.203912474907267        0.101956237454890        0.101956237452378       -0.000000000001256
       -9.796098966479997        0.211269552899907        0.105634776449569        0.105634776450338        0.000000000000384
       -9.768887580461998        0.219129625933273        0.109564812967701        0.109564812965572       -0.000000000001065
       -9.741676194443999        0.227544719992011        0.113772359997810        0.113772359994202       -0.000000000001804
       -9.714464808425998        0.236574257585400        0.118287128794958        0.118287128790442       -0.000000000002258
       -9.687253422407998        0.246286423448523        0.123143211726225        0.123143211722298       -0.000000000001964
       -9.660042036389997        0.256759845186069        0.128379922593958        0.128379922592111       -0.000000000000924
       -9.632830650371998        0.268085676706164        0.134042838354322        0.134042838351842       -0.000000000001240
       -9.605619264353997        0.280370201040294        0.140185100521679        0.140185100518615       -0.000000000001532
       -9.578407878335998        0.293738108595227        0.146869054298716        0.146869054296511       -0.000000000001102
       -9.551196492317999        0.308336661302460        0.154168330651625        0.154168330650835       -0.000000000000395
       -9.523985106300000        0.324341028568742        0.162170514285712        0.162170514283030       -0.000000000001341
       -9.496773720281999        0.341961185677609        0.170980592840504        0.170980592837104       -0.000000000001700
       -9.469562334263999        0.361450910351436        0.180725455177302        0.180725455174134       -0.000000000001584
       -9.442350948245998        0.383119611073289        0.191559805538224        0.191559805535066       -0.000000000001579
       -9.415139562227999        0.407347983487246        0.203673991744624        0.203673991742622       -0.000000000001001
       -9.387928176210000        0.434608817124259        0.217304408562736        0.217304408561523       -0.000000000000606
       -9.360716790191999        0.465494616379658        0.232747308191537        0.232747308188121       -0.000000000001708
