                  #Energy              Total trace      Spin Up (spin axis)      Spin Dn (spin axis)         <Sx> (spin axis)         <Sy> (spin axis)         <Sz> (spin axis)
      -13.605693008999998        0.007280182944940        0.002319341068118        0.004960841876822        0.000000000000000        0.000000000000000        0.001320750404352
      -13.578481622981998        0.007339541346586        0.002334492052280        0.005005049294306        0.000000000000000        0.000000000000000        0.001335278621013
      -13.551270236963997        0.007399706219991        0.002349808937934        0.005049897282056        0.000000000000000        0.000000000000000        0.001350044172061
      -13.524058850945998        0.007460692415661        0.002365294194924        0.005095398220738        0.000000000000000        0.000000000000000        0.001365052012907
      -13.496847464927997        0.007522515157732        0.002380950345382        0.005141564812349        0.000000000000000        0.000000000000000        0.001380307233484
      -13.469636078909998        0.007585190054926        0.002396779964979        0.005188410089947        0.000000000000000        0.000000000000000        0.001395815062484
      -13.442424692891997        0.007648733112319        0.002412785684270        0.005235947428049        0.000000000000000        0.000000000000000        0.001411580871890
      -13.415213306873998        0.007713160743434        0.002428970190274        0.005284190553160        0.000000000000000        0.000000000000000        0.001427610181443
      -13.388001920855997        0.007778489782341        0.002445336227580        0.005333153554761        0.000000000000000        0.000000000000000        0.001443908663590
      -13.360790534837998        0.007844737496945        0.002461886600117        0.005382850896829        0.000000000000000        0.000000000000000        0.001460482148356
      -13.333579148819997        0.007911921602288        0.002478624172563        0.005433297429726        0.000000000000000        0.000000000000000        0.001477336628582
      -13.306367762801997        0.007980060274363        0.002495551871881        0.005484508402482        0.000000000000000        0.000000000000000        0.001494478265300
      -13.279156376783998        0.008049172164852        0.002512672689066        0.005536499475786        0.000000000000000        0.000000000000000        0.001511913393360
      -13.251944990765997        0.008119276416024        0.002529989680877        0.005589286735148        0.000000000000000        0.000000000000000        0.001529648527135
      -13.224733604747998        0.008190392676345        0.002547505971377        0.005642886704968        0.000000000000000        0.000000000000000        0.001547690366795
      -13.197522218729997        0.008262541116838        0.002565224754073        0.005697316362765        0.000000000000000        0.000000000000000        0.001566045804346
      -13.170310832711998        0.008335742447891        0.002583149293535        0.005752593154356        0.000000000000000        0.000000000000000        0.001584721930410
      -13.143099446693997        0.008410017936864        0.002601282927526        0.005808735009338        0.000000000000000        0.000000000000000        0.001603726040906
      -13.115888060675998        0.008485389426251        0.002619629068843        0.005865760357408        0.000000000000000        0.000000000000000        0.001623065644282
      -13.088676674657997        0.008561879352824        0.002638191207654        0.005923688145170        0.000000000000000        0.000000000000000        0.001642748468758
      -13.061465288639997        0.008639510767277        0.002656972913403        0.005982537853874        0.000000000000000        0.000000000000000        0.001662782470235
      -13.034253902621998        0.008718307354779        0.002675977837242        0.006042329517537        0.000000000000000        0.000000000000000        0.001683175840148
      -13.007042516603999        0.008798293456477        0.002695209714374        0.006103083742104        0.000000000000000        0.000000000000000        0.001703937013865
      -12.979831130585998        0.008879494091698        0.002714672366300        0.006164821725398        0.000000000000000        0.000000000000000        0.001725074679549
      -12.952619744567999        0.008961934981148        0.002734369703471        0.006227565277677        0.000000000000000        0.000000000000000        0.001746597787103
      -12.925408358549999        0.009045642571083        0.002754305727885        0.006291336843198        0.000000000000000        0.000000000000000        0.001768515557656
      -12.898196972531998        0.009130644058455        0.002774484535606        0.006356159522849        0.000000000000000        0.000000000000000        0.001790837493621
      -12.870985586513999        0.009216967417232        0.002794910319823        0.006422057097409        0.000000000000000        0.000000000000000        0.001813573388793
      -12.843774200495998        0.009304641425734        0.002815587373604        0.006489054052130        0.000000000000000        0.000000000000000        0.001836733339263
      -12.816562814477999        0.009393695694986        0.002836520092886        0.006557175602100        0.000000000000000        0.000000000000000        0.001860327754607
      -12.789351428459998        0.009484160698701        0.002857712979678        0.006626447719024        0.000000000000000        0.000000000000000        0.001884367369673
      -12.762140042441999        0.009576067804004        0.002879170645174        0.006696897158829        0.000000000000000        0.000000000000000        0.001908863256828
      -12.734928656423998        0.009669449304338        0.002900897813467        0.006768551490871        0.000000000000000        0.000000000000000        0.001933826838702
      -12.707717270405999        0.009764338452527        0.002922899324580        0.006841439127948        0.000000000000000        0.000000000000000        0.001959269901684
      -12.680505884387998        0.009860769496677        0.002945180138491        0.006915589358186        0.000000000000000        0.000000000000000        0.001985204609847
      -12.653294498369998        0.009958777716650        0.002967745338746        0.006991032377904        0.000000000000000        0.000000000000000        0.002011643519579
      -12.626083112351999        0.010058399462812        0.002990600136412        0.007067799326399        0.000000000000000        0.000000000000000        0.002038599594994
      -12.598871726333998        0.010159672196205        0.003013749874323        0.007145922321882        0.000000000000000        0.000000000000000        0.002066086223779
      -12.571660340315999        0.010262634530521        0.003037200031160        0.007225434499361        0.000000000000000        0.000000000000000        0.002094117234100
      -12.544448954297998        0.010367326276140        0.003060956225955        0.007306370050185        0.000000000000000        0.000000000000000        0.002122706912115
      -12.517237568279999        0.010473788486195        0.003085024222888        0.007388764263306        0.000000000000000        0.000000000000000        0.002151870020209
      -12.490026182261998        0.010582063504754        0.003109409935839        0.007472653568914        0.000000000000000        0.000000000000000        0.002181621816538
      -12.462814796243999        0.010692195017077        0.003134119433604        0.007558075583472        0.000000000000000        0.000000000000000        0.002211978074934
      -12.435603410225998        0.010804228102532        0.003159158945147        0.007645069157385        0.000000000000000        0.000000000000000        0.002242955106119
      -12.408392024207998        0.010918209289689        0.003184534864809        0.007733674424879        0.000000000000000        0.000000000000000        0.002274569780035
      -12.381180638189999        0.011034186614511        0.003210253758440        0.007823932856072        0.000000000000000        0.000000000000000        0.002306839548816
      -12.353969252171998        0.011152209680902        0.003236322369000        0.007915887311902        0.000000000000000        0.000000000000000        0.002339782471451
      -12.326757866153999        0.011272329724303        0.003262747622835        0.008009582101468        0.000000000000000        0.000000000000000        0.002373417239316
      -12.299546480135998        0.011394599678702        0.003289536636333        0.008105063042370        0.000000000000000        0.000000000000000        0.002407763203019
      -12.272335094117999        0.011519074246395        0.003316696722512        0.008202377523883        0.000000000000000        0.000000000000000        0.002442840400686
      -12.245123708099998        0.011645809971823        0.003344235398272        0.008301574573551        0.000000000000000        0.000000000000000        0.002478669587639
      -12.217912322081999        0.011774865318550        0.003372160391511        0.008402704927039        0.000000000000000        0.000000000000000        0.002515272267764
      -12.190700936063998        0.011906300750714        0.003400479649322        0.008505821101392        0.000000000000000        0.000000000000000        0.002552670726035
      -12.163489550045998        0.012040178817874        0.003429201345661        0.008610977472213        0.000000000000000        0.000000000000000        0.002590888063276
      -12.136278164027997        0.012176564245220        0.003458333890206        0.008718230355013        0.000000000000000        0.000000000000000        0.002629948232403
      -12.109066778009998        0.012315524027184        0.003487885936956        0.008827638090228        0.000000000000000        0.000000000000000        0.002669876076636
      -12.081855391991999        0.012457127527253        0.003517866393648        0.008939261133605        0.000000000000000        0.000000000000000        0.002710697369978
      -12.054644005973998        0.012601446582012        0.003548284431659        0.009053162150352        0.000000000000000        0.000000000000000        0.002752438859347
      -12.027432619955999        0.012748555611508        0.003579149496195        0.009169406115313        0.000000000000000        0.000000000000000        0.002795128309559
      -12.000221233937998        0.012898531734344        0.003610471316627        0.009288060417717        0.000000000000000        0.000000000000000        0.002838794550545
      -11.973009847919998        0.013051454890887        0.003642259918568        0.009409194972319        0.000000000000000        0.000000000000000        0.002883467526876
      -11.945798461901997        0.013207407971235        0.003674525635062        0.009532882336173        0.000000000000000        0.000000000000000        0.002929178350556
      -11.918587075883998        0.013366476951317        0.003707279119428        0.009659197831888        0.000000000000000        0.000000000000000        0.002975959356230
      -11.891375689865997        0.013528751036226        0.003740531357905        0.009788219678321        0.000000000000000        0.000000000000000        0.003023844160208
      -11.864164303847998        0.013694322811798        0.003774293684089        0.009920029127709        0.000000000000000        0.000000000000000        0.003072867721810
      -11.836952917829997        0.013863288404416        0.003808577792835        0.010054710611581        0.000000000000000        0.000000000000000        0.003123066409373
      -11.809741531811998        0.014035747650187        0.003843395755905        0.010192351894282        0.000000000000000        0.000000000000000        0.003174478069188
      -11.782530145793999        0.014211804273455        0.003878760037731        0.010333044235724        0.000000000000000        0.000000000000000        0.003227142098997
      -11.755318759775998        0.014391566076331        0.003914683512705        0.010476882563626        0.000000000000000        0.000000000000000        0.003281099525461
      -11.728107373757998        0.014575145138865        0.003951179482948        0.010623965655917        0.000000000000000        0.000000000000000        0.003336393086485
      -11.700895987739997        0.014762658030785        0.003988261697043        0.010774396333742        0.000000000000000        0.000000000000000        0.003393067318350
      -11.673684601721998        0.014954226036790        0.004025944370163        0.010928281666627        0.000000000000000        0.000000000000000        0.003451168648232
      -11.646473215703997        0.015149975394452        0.004064242205170        0.011085733189282        0.000000000000000        0.000000000000000        0.003510745492056
      -11.619261829685998        0.015350037547076        0.004103170414694        0.011246867132382        0.000000000000000        0.000000000000000        0.003571848358844
      -11.592050443667997        0.015554549412216        0.004142744744979        0.011411804667237        0.000000000000000        0.000000000000000        0.003634529961129
      -11.564839057649998        0.015763653666397        0.004182981500641        0.011580672165756        0.000000000000000        0.000000000000000        0.003698845332557
      -11.537627671631999        0.015977499048285        0.004223897571260        0.011753601477024        0.000000000000000        0.000000000000000        0.003764851952882
      -11.510416285613998        0.016196240680510        0.004265510459404        0.011930730221106        0.000000000000000        0.000000000000000        0.003832609880851
      -11.483204899595998        0.016420040412427        0.004307838310369        0.012112202102058        0.000000000000000        0.000000000000000        0.003902181895845
      -11.455993513577997        0.016649067184869        0.004350899943913        0.012298167240956        0.000000000000000        0.000000000000000        0.003973633648522
      -11.428782127559998        0.016883497418636        0.004394714887483        0.012488782531153        0.000000000000000        0.000000000000000        0.004047033821835
      -11.401570741541997        0.017123515429359        0.004439303412505        0.012684212016854        0.000000000000000        0.000000000000000        0.004122454302174
      -11.374359355523998        0.017369313868637        0.004484686571931        0.012884627296706        0.000000000000000        0.000000000000000        0.004199970362387
      -11.347147969505997        0.017621094196378        0.004530886240923        0.013090207955456        0.000000000000000        0.000000000000000        0.004279660857266
      -11.319936583487999        0.017879067184446        0.004577925159950        0.013301142024496        0.000000000000000        0.000000000000000        0.004361608432273
      -11.292725197469998        0.018143453455498        0.004625826981047        0.013517626474451        0.000000000000000        0.000000000000000        0.004445899746702
      -11.265513811451999        0.018414484058935        0.004674616316587        0.013739867742349        0.000000000000000        0.000000000000000        0.004532625712881
      -11.238302425433998        0.018692401087830        0.004724318792112        0.013968082295717        0.000000000000000        0.000000000000000        0.004621881751803
      -11.211091039415999        0.018977458339946        0.004774961102702        0.014202497237244        0.000000000000000        0.000000000000000        0.004713768067271
      -11.183879653398000        0.019269922025686        0.004826571072659        0.014443350953027        0.000000000000000        0.000000000000000        0.004808389940184
      -11.156668267379999        0.019570071528773        0.004879177720503        0.014690893808270        0.000000000000000        0.000000000000000        0.004905858043883
      -11.129456881362000        0.019878200222197        0.004932811327902        0.014945388894295        0.000000000000000        0.000000000000000        0.005006288783197
      -11.102245495343999        0.020194616345661        0.004987503514052        0.015207112831609        0.000000000000000        0.000000000000000        0.005109804658779
      -11.075034109325999        0.020519643948942        0.005043287315432        0.015476356633510        0.000000000000000        0.000000000000000        0.005216534659039
      -11.047822723307998        0.020853623908196        0.005100197272132        0.015753426636065        0.000000000000000        0.000000000000000        0.005326614681966
      -11.020611337289999        0.021196915019829        0.005158269519658        0.016038645500171        0.000000000000000        0.000000000000000        0.005440187990257
      -10.993399951271998        0.021549895181744        0.005217541889663        0.016332353292081        0.000000000000000        0.000000000000000        0.005557405701209
      -10.966188565253999        0.021912962667184        0.005278054017223        0.016634908649961        0.000000000000000        0.000000000000000        0.005678427316369
      -10.938977179235998        0.022286537501557        0.005339847457112        0.016946690044445        0.000000000000000        0.000000000000000        0.005803421293666
      -10.911765793217999        0.022671062952171        0.005402965810650        0.017268097141521        0.000000000000000        0.000000000000000        0.005932565665436
      -10.884554407200000        0.023067007139963        0.005467454861430        0.017599552278532        0.000000000000000        0.000000000000000        0.006066048708551
      -10.857343021181999        0.023474864787064        0.005533362724095        0.017941502062969        0.000000000000000        0.000000000000000        0.006204069669437
      -10.830131635163999        0.023895159112505        0.005600740005128        0.018294419107377        0.000000000000000        0.000000000000000        0.006346839551124
      -10.802920249145998        0.024328443891229        0.005669639978109        0.018658803913120        0.000000000000000        0.000000000000000        0.006494581967505
      -10.775708863127999        0.024775305692554        0.005740118774197        0.019035186918356        0.000000000000000        0.000000000000000        0.006647534072079
      -10.748497477109998        0.025236366316801        0.005812235590663        0.019424130726138        0.000000000000000        0.000000000000000        0.006805947567738
      -10.721286091091999        0.025712285451241        0.005886052917739        0.019826232533502        0.000000000000000        0.000000000000000        0.006970089807882
      -10.694074705073998        0.026203763567731        0.005961636787709        0.020242126780023        0.000000000000000        0.000000000000000        0.007140244996157
      -10.666863319055999        0.026711545088520        0.006039057047592        0.020672488040927        0.000000000000000        0.000000000000000        0.007316715496667
      -10.639651933037998        0.027236421849110        0.006118387657932        0.021118034191178        0.000000000000000        0.000000000000000        0.007499823266623
      -10.612440547019999        0.027779236891490        0.006199707022061        0.021579529869429        0.000000000000000        0.000000000000000        0.007689911423684
      -10.585229161001999        0.028340888624766        0.006283098348245        0.022057790276522        0.000000000000000        0.000000000000000        0.007887345964138
