                  #Energy              Total trace      Spin Up (spin axis)      Spin Dn (spin axis)         <Sx> (spin axis)         <Sy> (spin axis)         <Sz> (spin axis)
      -13.605693008999998        0.007232082340330        0.004861859043143        0.002370223297187        0.000000000000000        0.000000000000000       -0.001245817872978
      -13.578481622981998        0.007290258815390        0.004904474658651        0.002385784156739        0.000000000000000        0.000000000000000       -0.001259345250956
      -13.551270236963997        0.007349207288071        0.004947691470525        0.002401515817546        0.000000000000000        0.000000000000000       -0.001273087826490
      -13.524058850945998        0.007408941711202        0.004991520843280        0.002417420867922        0.000000000000000        0.000000000000000       -0.001287049987679
      -13.496847464927997        0.007469476378421        0.005035974426313        0.002433501952108        0.000000000000000        0.000000000000000       -0.001301236237103
      -13.469636078909998        0.007530825935309        0.005081064164757        0.002449761770552        0.000000000000000        0.000000000000000       -0.001315651197102
      -13.442424692891997        0.007593005388657        0.005126802306332        0.002466203082325        0.000000000000000        0.000000000000000       -0.001330299612003
      -13.415213306873998        0.007656030117349        0.005173201411372        0.002482828705977        0.000000000000000        0.000000000000000       -0.001345186352697
      -13.388001920855997        0.007719915884247        0.005220274362773        0.002499641521474        0.000000000000000        0.000000000000000       -0.001360316420650
      -13.360790534837998        0.007784678847164        0.005268034375638        0.002516644471526        0.000000000000000        0.000000000000000       -0.001375694952056
      -13.333579148819997        0.007850335570577        0.005316495006897        0.002533840563680        0.000000000000000        0.000000000000000       -0.001391327221608
      -13.306367762801997        0.007916903039541        0.005365670167360        0.002551232872181        0.000000000000000        0.000000000000000       -0.001407218647589
      -13.279156376783998        0.007984398670554        0.005415574131689        0.002568824538866        0.000000000000000        0.000000000000000       -0.001423374796412
      -13.251944990765997        0.008052840326793        0.005466221550729        0.002586618776063        0.000000000000000        0.000000000000000       -0.001439801387333
      -13.224733604747998        0.008122246330879        0.005517627462584        0.002604618868296        0.000000000000000        0.000000000000000       -0.001456504297144
      -13.197522218729997        0.008192635479924        0.005569807306237        0.002622828173687        0.000000000000000        0.000000000000000       -0.001473489566275
      -13.170310832711998        0.008264027060118        0.005622776933171        0.002641250126947        0.000000000000000        0.000000000000000       -0.001490763403112
      -13.143099446693997        0.008336440862951        0.005676552622098        0.002659888240854        0.000000000000000        0.000000000000000       -0.001508332190622
      -13.115888060675998        0.008409897201275        0.005731151092199        0.002678746109076        0.000000000000000        0.000000000000000       -0.001526202491561
      -13.088676674657997        0.008484416925187        0.005786589517081        0.002697827408106        0.000000000000000        0.000000000000000       -0.001544381054487
      -13.061465288639997        0.008560021440989        0.005842885541679        0.002717135899310        0.000000000000000        0.000000000000000       -0.001562874821185
      -13.034253902621998        0.008636732728651        0.005900057295960        0.002736675432690        0.000000000000000        0.000000000000000       -0.001581690931635
      -13.007042516603999        0.008714573361038        0.005958123412818        0.002756449948220        0.000000000000000        0.000000000000000       -0.001600836732299
      -12.979831130585998        0.008793566522731        0.006017103043698        0.002776463479033        0.000000000000000        0.000000000000000       -0.001620319782332
      -12.952619744567999        0.008873736032138        0.006077015877621        0.002796720154516        0.000000000000000        0.000000000000000       -0.001640147861553
      -12.925408358549999        0.008955106361342        0.006137882158667        0.002817224202675        0.000000000000000        0.000000000000000       -0.001660328977996
      -12.898196972531998        0.009037702659119        0.006199722705738        0.002837979953381        0.000000000000000        0.000000000000000       -0.001680871376178
      -12.870985586513999        0.009121550774016        0.006262558932292        0.002858991841724        0.000000000000000        0.000000000000000       -0.001701783545284
      -12.843774200495998        0.009206677277752        0.006326412866714        0.002880264411038        0.000000000000000        0.000000000000000       -0.001723074227838
      -12.816562814477999        0.009293109491779        0.006391307175391        0.002901802316388        0.000000000000000        0.000000000000000       -0.001744752429502
      -12.789351428459998        0.009380875511786        0.006457265183868        0.002923610327918        0.000000000000000        0.000000000000000       -0.001766827427975
      -12.762140042441999        0.009470004236753        0.006524310901190        0.002945693335563        0.000000000000000        0.000000000000000       -0.001789308782813
      -12.734928656423998        0.009560525394449        0.006592469044056        0.002968056350394        0.000000000000000        0.000000000000000       -0.001812206346831
      -12.707717270405999        0.009652469575206        0.006661765063396        0.002990704511810        0.000000000000000        0.000000000000000       -0.001835530275793
      -12.680505884387998        0.009745868259419        0.006732225170302        0.003013643089117        0.000000000000000        0.000000000000000       -0.001859291040592
      -12.653294498369998        0.009840753851395        0.006803876364305        0.003036877487090        0.000000000000000        0.000000000000000       -0.001883499438608
      -12.626083112351999        0.009937159713197        0.006876746462704        0.003060413250493        0.000000000000000        0.000000000000000       -0.001908166606106
      -12.598871726333998        0.010035120198972        0.006950864130920        0.003084256068052        0.000000000000000        0.000000000000000       -0.001933304031434
      -12.571660340315999        0.010134670692298        0.007026258914237        0.003108411778061        0.000000000000000        0.000000000000000       -0.001958923568088
      -12.544448954297998        0.010235847644841        0.007102961271959        0.003132886372882        0.000000000000000        0.000000000000000       -0.001985037449538
      -12.517237568279999        0.010338688615678        0.007181002610905        0.003157686004773        0.000000000000000        0.000000000000000       -0.002011658303066
      -12.490026182261998        0.010443232315154        0.007260415323330        0.003182816991824        0.000000000000000        0.000000000000000       -0.002038799165753
      -12.462814796243999        0.010549518646281        0.007341232824103        0.003208285822178        0.000000000000000        0.000000000000000       -0.002066473500963
      -12.435603410225998        0.010657588752311        0.007423489590741        0.003234099161570        0.000000000000000        0.000000000000000       -0.002094695214585
      -12.408392024207998        0.010767485065017        0.007507221205719        0.003260263859297        0.000000000000000        0.000000000000000       -0.002123478673211
      -12.381180638189999        0.010879251354021        0.007592464399582        0.003286786954440        0.000000000000000        0.000000000000000       -0.002152838722571
      -12.353969252171998        0.010992932781128        0.007679257097346        0.003313675683781        0.000000000000000        0.000000000000000       -0.002182790706782
      -12.326757866153999        0.011108575953239        0.007767638466091        0.003340937487148        0.000000000000000        0.000000000000000       -0.002213350489472
      -12.299546480135998        0.011226228983370        0.007857648965885        0.003368580017485        0.000000000000000        0.000000000000000       -0.002244534474200
      -12.272335094117999        0.011345941549231        0.007949330402457        0.003396611146774        0.000000000000000        0.000000000000000       -0.002276359627842
      -12.245123708099998        0.011467764957169        0.008042725981849        0.003425038975320        0.000000000000000        0.000000000000000       -0.002308843503265
      -12.217912322081999        0.011591752210026        0.008137880369741        0.003453871840285        0.000000000000000        0.000000000000000       -0.002342004264728
      -12.190700936063998        0.011717958077034        0.008234839752609        0.003483118324425        0.000000000000000        0.000000000000000       -0.002375860714092
      -12.163489550045998        0.011846439167495        0.008333651900533        0.003512787266963        0.000000000000000        0.000000000000000       -0.002410432316785
      -12.136278164027997        0.011977254008418        0.008434366236347        0.003542887772071        0.000000000000000        0.000000000000000       -0.002445739232138
      -12.109066778009998        0.012110463125553        0.008537033905168        0.003573429220385        0.000000000000000        0.000000000000000       -0.002481802342391
      -12.081855391991999        0.012246129129419        0.008641707849852        0.003604421279567        0.000000000000000        0.000000000000000       -0.002518643285143
      -12.054644005973998        0.012384316806500        0.008748442889240        0.003635873917260        0.000000000000000        0.000000000000000       -0.002556284485990
      -12.027432619955999        0.012525093211543        0.008857295800296        0.003667797411247        0.000000000000000        0.000000000000000       -0.002594749194525
      -12.000221233937998        0.012668527770598        0.008968325405797        0.003700202364800        0.000000000000000        0.000000000000000       -0.002634061520498
      -11.973009847919998        0.012814692384133        0.009081592665779        0.003733099718354        0.000000000000000        0.000000000000000       -0.002674246473712
      -11.945798461901997        0.012963661538462        0.009197160773595        0.003766500764867        0.000000000000000        0.000000000000000       -0.002715330004364
      -11.918587075883998        0.013115512423243        0.009315095258276        0.003800417164968        0.000000000000000        0.000000000000000       -0.002757339046654
      -11.891375689865997        0.013270325054031        0.009435464092092        0.003834860961940        0.000000000000000        0.000000000000000       -0.002800301565076
      -11.864164303847998        0.013428182403910        0.009558337803273        0.003869844600637        0.000000000000000        0.000000000000000       -0.002844246601318
      -11.836952917829997        0.013589170538753        0.009683789596203        0.003905380942550        0.000000000000000        0.000000000000000       -0.002889204326827
      -11.809741531811998        0.013753378765351        0.009811895478222        0.003941483287128        0.000000000000000        0.000000000000000       -0.002935206095547
      -11.782530145793999        0.013920899782750        0.009942734392402        0.003978165390348        0.000000000000000        0.000000000000000       -0.002982284501027
      -11.755318759775998        0.014091829846123        0.010076388360395        0.004015441485728        0.000000000000000        0.000000000000000       -0.003030473437333
      -11.728107373757998        0.014266268938544        0.010212942631370        0.004053326307174        0.000000000000000        0.000000000000000       -0.003079808162098
      -11.700895987739997        0.014444320951276        0.010352485839298        0.004091835111977        0.000000000000000        0.000000000000000       -0.003130325363660
      -11.673684601721998        0.014626093879449        0.010495110172616        0.004130983706833        0.000000000000000        0.000000000000000       -0.003182063232892
      -11.646473215703997        0.014811700026050        0.010640911552499        0.004170788473551        0.000000000000000        0.000000000000000       -0.003235061539474
      -11.619261829685998        0.015001256216054        0.010789989818637        0.004211266397417        0.000000000000000        0.000000000000000       -0.003289361710610
      -11.592050443667997        0.015194884030291        0.010942448932677        0.004252435097614        0.000000000000000        0.000000000000000       -0.003345006917532
      -11.564839057649998        0.015392710047821        0.011098397188927        0.004294312858895        0.000000000000000        0.000000000000000       -0.003402042165016
      -11.537627671631999        0.015594866106319        0.011257947441444        0.004336918664876        0.000000000000000        0.000000000000000       -0.003460514388284
      -11.510416285613998        0.015801489578592        0.011421217342649        0.004380272235943        0.000000000000000        0.000000000000000       -0.003520472553353
      -11.483204899595998        0.016012723666116        0.011588329600177        0.004424394065939        0.000000000000000        0.000000000000000       -0.003581967767119
      -11.455993513577997        0.016228717712603        0.011759412248401        0.004469305464203        0.000000000000000        0.000000000000000       -0.003645053392099
      -11.428782127559998        0.016449627537435        0.011934598937369        0.004515028600066        0.000000000000000        0.000000000000000       -0.003709785168652
      -11.401570741541997        0.016675615791664        0.012114029242878        0.004561586548785        0.000000000000000        0.000000000000000       -0.003776221347047
      -11.374359355523998        0.016906852336684        0.012297848994601        0.004609003342083        0.000000000000000        0.000000000000000       -0.003844422826259
      -11.347147969505997        0.017143514651204        0.012486210628258        0.004657304022946        0.000000000000000        0.000000000000000       -0.003914453302656
      -11.319936583487999        0.017385788263747        0.012679273561348        0.004706514702399        0.000000000000000        0.000000000000000       -0.003986379429474
      -11.292725197469998        0.017633867215094        0.012877204593682        0.004756662621412        0.000000000000000        0.000000000000000       -0.004060270986135
      -11.265513811451999        0.017887954557044        0.013080178338228        0.004807776218816        0.000000000000000        0.000000000000000       -0.004136201059706
      -11.238302425433998        0.018148262881175        0.013288377680004        0.004859885201172        0.000000000000000        0.000000000000000       -0.004214246239416
      -11.211091039415999        0.018415014889489        0.013501994268982        0.004913020620506        0.000000000000000        0.000000000000000       -0.004294486824238
      -11.183879653398000        0.018688444008155        0.013721229050127        0.004967214958028        0.000000000000000        0.000000000000000       -0.004377007046050
      -11.156668267379999        0.018968795041628        0.013946292828357        0.005022502213271        0.000000000000000        0.000000000000000       -0.004461895307543
      -11.129456881362000        0.019256324880824        0.014177406880667        0.005078918000158        0.000000000000000        0.000000000000000       -0.004549244440254
      -11.102245495343999        0.019551303263498        0.014414803609819        0.005136499653679        0.000000000000000        0.000000000000000       -0.004639151978070
      -11.075034109325999        0.019854013592744        0.014658727251259        0.005195286341485        0.000000000000000        0.000000000000000       -0.004731720454887
      -11.047822723307998        0.020164753819674        0.014909434632368        0.005255319187307        0.000000000000000        0.000000000000000       -0.004827057722530
      -11.020611337289999        0.020483837399677        0.015167195993755        0.005316641405922        0.000000000000000        0.000000000000000       -0.004925277293917
      -10.993399951271998        0.020811594319000        0.015432295872843        0.005379298446157        0.000000000000000        0.000000000000000       -0.005026498713343
      -10.966188565253999        0.021148372212776        0.015705034062247        0.005443338150529        0.000000000000000        0.000000000000000       -0.005130847955859
      -10.938977179235998        0.021494537570238        0.015985726642957        0.005508810927280        0.000000000000000        0.000000000000000       -0.005238457857838
      -10.911765793217999        0.021850477047193        0.016274707107768        0.005575769939425        0.000000000000000        0.000000000000000       -0.005349468584171
      -10.884554407200000        0.022216598883463        0.016572327574800        0.005644271308663        0.000000000000000        0.000000000000000       -0.005464028133068
      -10.857343021181999        0.022593334452553        0.016878960108856        0.005714374343697        0.000000000000000        0.000000000000000       -0.005582292882580
      -10.830131635163999        0.022981139940556        0.017194998155070        0.005786141785486        0.000000000000000        0.000000000000000       -0.005704428184792
      -10.802920249145998        0.023380498183538        0.017520858101723        0.005859640081815        0.000000000000000        0.000000000000000       -0.005830609009954
      -10.775708863127999        0.023791920666057        0.017856980981536        0.005934939684520        0.000000000000000        0.000000000000000       -0.005961020648508
      -10.748497477109998        0.024215949710718        0.018203834328423        0.006012115382295        0.000000000000000        0.000000000000000       -0.006095859473064
      -10.721286091091999        0.024653160874734        0.018561914209740        0.006091246664994        0.000000000000000        0.000000000000000       -0.006235333772373
      -10.694074705073998        0.025104165574671        0.018931747446062        0.006172418128609        0.000000000000000        0.000000000000000       -0.006379664658726
      -10.666863319055999        0.025569613974192        0.019313894048714        0.006255719925478        0.000000000000000        0.000000000000000       -0.006529087061618
      -10.639651933037998        0.026050198155976        0.019708949893577        0.006341248262399        0.000000000000000        0.000000000000000       -0.006683850815589
      -10.612440547019999        0.026546655622720        0.020117549663586        0.006429105959134        0.000000000000000        0.000000000000000       -0.006844221852226
      -10.585229161001999        0.027059773157564        0.020540370088840        0.006519403068724        0.000000000000000        0.000000000000000       -0.007010483510058
